          x            density        pressure        velocity        internal energy

   2.5000000E-03   1.0000000E+00   0.0000000E+00   1.0000000E+03   2.5000000E+03
   5.0000000E-03   1.0000000E+00   0.0000000E+00   1.0000000E+03   2.5000000E+03
   7.5000000E-03   1.0000000E+00   0.0000000E+00   1.0000000E+03   2.5000000E+03
   1.0000000E-02   1.0000000E+00   0.0000000E+00   1.0000000E+03   2.5000000E+03
   1.2500000E-02   1.0000000E+00   0.0000000E+00   1.0000000E+03   2.5000000E+03
   1.5000000E-02   1.0000000E+00   0.0000000E+00   1.0000000E+03   2.5000000E+03
   1.7500000E-02   1.0000000E+00   0.0000000E+00   1.0000000E+03   2.5000000E+03
   2.0000000E-02   1.0000000E+00   0.0000000E+00   1.0000000E+03   2.5000000E+03
   2.2500000E-02   1.0000000E+00   0.0000000E+00   1.0000000E+03   2.5000000E+03
   2.5000000E-02   1.0000000E+00   0.0000000E+00   1.0000000E+03   2.5000000E+03
   2.7500000E-02   1.0000000E+00   0.0000000E+00   1.0000000E+03   2.5000000E+03
   3.0000000E-02   1.0000000E+00   0.0000000E+00   1.0000000E+03   2.5000000E+03
   3.2500000E-02   1.0000000E+00   0.0000000E+00   1.0000000E+03   2.5000000E+03
   3.5000000E-02   1.0000000E+00   0.0000000E+00   1.0000000E+03   2.5000000E+03
   3.7500000E-02   1.0000000E+00   0.0000000E+00   1.0000000E+03   2.5000000E+03
   4.0000000E-02   1.0000000E+00   0.0000000E+00   1.0000000E+03   2.5000000E+03
   4.2500000E-02   1.0000000E+00   0.0000000E+00   1.0000000E+03   2.5000000E+03
   4.5000000E-02   1.0000000E+00   0.0000000E+00   1.0000000E+03   2.5000000E+03
   4.7500000E-02   1.0000000E+00   0.0000000E+00   1.0000000E+03   2.5000000E+03
   5.0000000E-02   1.0000000E+00   0.0000000E+00   1.0000000E+03   2.5000000E+03
   5.2500000E-02   9.9722119E-01   1.0408933E-01   9.9611183E+02   2.4972189E+03
   5.5000000E-02   9.9260014E-01   2.7770045E-01   9.8965556E+02   2.4925837E+03
   5.7500000E-02   9.8799625E-01   4.5131156E-01   9.8323519E+02   2.4879527E+03
   6.0000000E-02   9.8340945E-01   6.2492267E-01   9.7685055E+02   2.4833261E+03
   6.2500000E-02   9.7883970E-01   7.9853378E-01   9.7050149E+02   2.4787038E+03
   6.5000000E-02   9.7428695E-01   9.7214489E-01   9.6418782E+02   2.4740858E+03
   6.7500000E-02   9.6975117E-01   1.1457560E+00   9.5790940E+02   2.4694722E+03
   7.0000000E-02   9.6523229E-01   1.3193671E+00   9.5166605E+02   2.4648628E+03
   7.2500000E-02   9.6073027E-01   1.4929782E+00   9.4545761E+02   2.4602577E+03
   7.5000000E-02   9.5624507E-01   1.6665893E+00   9.3928393E+02   2.4556569E+03
   7.7500000E-02   9.5177663E-01   1.8402004E+00   9.3314482E+02   2.4510605E+03
   8.0000000E-02   9.4732491E-01   2.0138116E+00   9.2704015E+02   2.4464683E+03
   8.2500000E-02   9.4288987E-01   2.1874227E+00   9.2096973E+02   2.4418804E+03
   8.5000000E-02   9.3847145E-01   2.3610338E+00   9.1493342E+02   2.4372969E+03
   8.7500000E-02   9.3406962E-01   2.5346449E+00   9.0893106E+02   2.4327177E+03
   9.0000000E-02   9.2968431E-01   2.7082560E+00   9.0296248E+02   2.4281427E+03
   9.2500000E-02   9.2531549E-01   2.8818671E+00   8.9702752E+02   2.4235721E+03
   9.5000000E-02   9.2096311E-01   3.0554782E+00   8.9112603E+02   2.4190058E+03
   9.7500000E-02   9.1662713E-01   3.2290893E+00   8.8525785E+02   2.4144437E+03
   1.0000000E-01   9.1230749E-01   3.4027004E+00   8.7942283E+02   2.4098860E+03
   1.0250000E-01   9.0800415E-01   3.5763116E+00   8.7362080E+02   2.4053326E+03
   1.0500000E-01   9.0371707E-01   3.7499227E+00   8.6785162E+02   2.4007835E+03
   1.0750000E-01   8.9944619E-01   3.9235338E+00   8.6211512E+02   2.3962387E+03
   1.1000000E-01   8.9519148E-01   4.0971449E+00   8.5641115E+02   2.3916982E+03
   1.1250000E-01   8.9095288E-01   4.2707560E+00   8.5073956E+02   2.3871621E+03
   1.1500000E-01   8.8673035E-01   4.4443671E+00   8.4510020E+02   2.3826302E+03
   1.1750000E-01   8.8252385E-01   4.6179782E+00   8.3949291E+02   2.3781026E+03
   1.2000000E-01   8.7833333E-01   4.7915893E+00   8.3391754E+02   2.3735793E+03
   1.2250000E-01   8.7415874E-01   4.9652004E+00   8.2837393E+02   2.3690604E+03
   1.2500000E-01   8.7000004E-01   5.1388116E+00   8.2286195E+02   2.3645457E+03
   1.2750000E-01   8.6585718E-01   5.3124227E+00   8.1738143E+02   2.3600354E+03
   1.3000000E-01   8.6173012E-01   5.4860338E+00   8.1193223E+02   2.3555293E+03
   1.3250000E-01   8.5761881E-01   5.6596449E+00   8.0651419E+02   2.3510276E+03
   1.3500000E-01   8.5352321E-01   5.8332560E+00   8.0112718E+02   2.3465302E+03
   1.3750000E-01   8.4944326E-01   6.0068671E+00   7.9577104E+02   2.3420370E+03
   1.4000000E-01   8.4537894E-01   6.1804782E+00   7.9044562E+02   2.3375482E+03
   1.4250000E-01   8.4133019E-01   6.3540893E+00   7.8515077E+02   2.3330637E+03
   1.4500000E-01   8.3729697E-01   6.5277004E+00   7.7988636E+02   2.3285835E+03
   1.4750000E-01   8.3327923E-01   6.7013116E+00   7.7465223E+02   2.3241076E+03
   1.5000000E-01   8.2927692E-01   6.8749227E+00   7.6944824E+02   2.3196360E+03
   1.5250000E-01   8.2529001E-01   7.0485338E+00   7.6427425E+02   2.3151687E+03
   1.5500000E-01   8.2131845E-01   7.2221449E+00   7.5913010E+02   2.3107057E+03
   1.5750000E-01   8.1736220E-01   7.3957560E+00   7.5401566E+02   2.3062470E+03
   1.6000000E-01   8.1342120E-01   7.5693671E+00   7.4893079E+02   2.3017927E+03
   1.6250000E-01   8.0949542E-01   7.7429782E+00   7.4387533E+02   2.2973426E+03
   1.6500000E-01   8.0558482E-01   7.9165893E+00   7.3884916E+02   2.2928968E+03
   1.6750000E-01   8.0168934E-01   8.0902004E+00   7.3385212E+02   2.2884554E+03
   1.7000000E-01   7.9780894E-01   8.2638116E+00   7.2888407E+02   2.2840182E+03
   1.7250000E-01   7.9394359E-01   8.4374227E+00   7.2394489E+02   2.2795854E+03
   1.7500000E-01   7.9009323E-01   8.6110338E+00   7.1903441E+02   2.2751569E+03
   1.7750000E-01   7.8625783E-01   8.7846449E+00   7.1415252E+02   2.2707326E+03
   1.8000000E-01   7.8243733E-01   8.9582560E+00   7.0929906E+02   2.2663127E+03
   1.8250000E-01   7.7863170E-01   9.1318671E+00   7.0447391E+02   2.2618971E+03
   1.8500000E-01   7.7484089E-01   9.3054782E+00   6.9967692E+02   2.2574858E+03
   1.8750000E-01   7.7106486E-01   9.4790893E+00   6.9490795E+02   2.2530788E+03
   1.9000000E-01   7.6730357E-01   9.6527004E+00   6.9016687E+02   2.2486761E+03
   1.9250000E-01   7.6355697E-01   9.8263116E+00   6.8545354E+02   2.2442777E+03
   1.9500000E-01   7.5982502E-01   9.9999227E+00   6.8076783E+02   2.2398836E+03
   1.9750000E-01   7.5610767E-01   1.0173534E+01   6.7610960E+02   2.2354938E+03
   2.0000000E-01   7.5240489E-01   1.0347145E+01   6.7147872E+02   2.2311083E+03
   2.0250000E-01   7.4871663E-01   1.0520756E+01   6.6687506E+02   2.2267271E+03
   2.0500000E-01   7.4504285E-01   1.0694367E+01   6.6229847E+02   2.2223503E+03
   2.0750000E-01   7.4138350E-01   1.0867978E+01   6.5774883E+02   2.2179777E+03
   2.1000000E-01   7.3773855E-01   1.1041589E+01   6.5322601E+02   2.2136094E+03
   2.1250000E-01   7.3410795E-01   1.1215200E+01   6.4872987E+02   2.2092455E+03
   2.1500000E-01   7.3049165E-01   1.1388812E+01   6.4426028E+02   2.2048859E+03
   2.1750000E-01   7.2688962E-01   1.1562423E+01   6.3981711E+02   2.2005305E+03
   2.2000000E-01   7.2330181E-01   1.1736034E+01   6.3540024E+02   2.1961795E+03
   2.2250000E-01   7.1972818E-01   1.1909645E+01   6.3100952E+02   2.1918328E+03
   2.2500000E-01   7.1616870E-01   1.2083256E+01   6.2664484E+02   2.1874903E+03
   2.2750000E-01   7.1262331E-01   1.2256867E+01   6.2230606E+02   2.1831522E+03
   2.3000000E-01   7.0909197E-01   1.2430478E+01   6.1799306E+02   2.1788184E+03
   2.3250000E-01   7.0557465E-01   1.2604089E+01   6.1370570E+02   2.1744889E+03
   2.3500000E-01   7.0207130E-01   1.2777700E+01   6.0944386E+02   2.1701637E+03
   2.3750000E-01   6.9858188E-01   1.2951312E+01   6.0520742E+02   2.1658428E+03
   2.4000000E-01   6.9510635E-01   1.3124923E+01   6.0099624E+02   2.1615262E+03
   2.4250000E-01   6.9164466E-01   1.3298534E+01   5.9681020E+02   2.1572139E+03
   2.4500000E-01   6.8819678E-01   1.3472145E+01   5.9264918E+02   2.1529060E+03
   2.4750000E-01   6.8476266E-01   1.3645756E+01   5.8851305E+02   2.1486023E+03
   2.5000000E-01   6.8134227E-01   1.3819367E+01   5.8440169E+02   2.1443029E+03
   2.5250000E-01   6.7793556E-01   1.3992978E+01   5.8031498E+02   2.1400079E+03
   2.5500000E-01   6.7454249E-01   1.4166589E+01   5.7625278E+02   2.1357171E+03
   2.5750000E-01   6.7116301E-01   1.4340200E+01   5.7221498E+02   2.1314307E+03
   2.6000000E-01   6.6779710E-01   1.4513812E+01   5.6820145E+02   2.1271486E+03
   2.6250000E-01   6.6444470E-01   1.4687423E+01   5.6421208E+02   2.1228707E+03
   2.6500000E-01   6.6110579E-01   1.4861034E+01   5.6024674E+02   2.1185972E+03
   2.6750000E-01   6.5778030E-01   1.5034645E+01   5.5630532E+02   2.1143280E+03
   2.7000000E-01   6.5446822E-01   1.5208256E+01   5.5238768E+02   2.1100631E+03
   2.7250000E-01   6.5116948E-01   1.5381867E+01   5.4849372E+02   2.1058024E+03
   2.7500000E-01   6.4788407E-01   1.5555478E+01   5.4462330E+02   2.1015461E+03
   2.7750000E-01   6.4461192E-01   1.5729089E+01   5.4077632E+02   2.0972941E+03
   2.8000000E-01   6.4135302E-01   1.5902700E+01   5.3695266E+02   2.0930464E+03
   2.8250000E-01   6.3810730E-01   1.6076312E+01   5.3315219E+02   2.0888031E+03
   2.8500000E-01   6.3487474E-01   1.6249923E+01   5.2937481E+02   2.0845640E+03
   2.8750000E-01   6.3165530E-01   1.6423534E+01   5.2562038E+02   2.0803292E+03
   2.9000000E-01   6.2844892E-01   1.6597145E+01   5.2188880E+02   2.0760987E+03
   2.9250000E-01   6.2525558E-01   1.6770756E+01   5.1817996E+02   2.0718726E+03
   2.9500000E-01   6.2207524E-01   1.6944367E+01   5.1449372E+02   2.0676507E+03
   2.9750000E-01   6.1890785E-01   1.7117978E+01   5.1082999E+02   2.0634332E+03
   3.0000000E-01   6.1575337E-01   1.7291589E+01   5.0718864E+02   2.0592199E+03
   3.0250000E-01   6.1261178E-01   1.7465200E+01   5.0356957E+02   2.0550110E+03
   3.0500000E-01   6.0948301E-01   1.7638812E+01   4.9997265E+02   2.0508063E+03
   3.0750000E-01   6.0636705E-01   1.7812423E+01   4.9639778E+02   2.0466060E+03
   3.1000000E-01   6.0326384E-01   1.7986034E+01   4.9284483E+02   2.0424100E+03
   3.1250000E-01   6.0017334E-01   1.8159645E+01   4.8931371E+02   2.0382183E+03
   3.1500000E-01   5.9709553E-01   1.8333256E+01   4.8580429E+02   2.0340309E+03
   3.1750000E-01   5.9403036E-01   1.8506867E+01   4.8231648E+02   2.0298478E+03
   3.2000000E-01   5.9097779E-01   1.8680478E+01   4.7885014E+02   2.0256690E+03
   3.2250000E-01   5.8793778E-01   1.8854089E+01   4.7540518E+02   2.0214945E+03
   3.2500000E-01   5.8491029E-01   1.9027700E+01   4.7198149E+02   2.0173243E+03
   3.2750000E-01   5.8189529E-01   1.9201312E+01   4.6857895E+02   2.0131584E+03
   3.3000000E-01   5.7889273E-01   1.9374923E+01   4.6519746E+02   2.0089968E+03
   3.3250000E-01   5.7590258E-01   1.9548534E+01   4.6183691E+02   2.0048395E+03
   3.3500000E-01   5.7506230E-01   1.9597451E+01   4.6089379E+02   2.0036689E+03
   3.3750000E-01   5.7506230E-01   1.9597451E+01   4.6089379E+02   2.0036689E+03
   3.4000000E-01   5.7506230E-01   1.9597451E+01   4.6089379E+02   2.0036689E+03
   3.4250000E-01   5.7506230E-01   1.9597451E+01   4.6089379E+02   2.0036689E+03
   3.4500000E-01   5.7506230E-01   1.9597451E+01   4.6089379E+02   2.0036689E+03
   3.4750000E-01   5.7506230E-01   1.9597451E+01   4.6089379E+02   2.0036689E+03
   3.5000000E-01   5.7506230E-01   1.9597451E+01   4.6089379E+02   2.0036689E+03
   3.5250000E-01   5.7506230E-01   1.9597451E+01   4.6089379E+02   2.0036689E+03
   3.5500000E-01   5.7506230E-01   1.9597451E+01   4.6089379E+02   2.0036689E+03
   3.5750000E-01   5.7506230E-01   1.9597451E+01   4.6089379E+02   2.0036689E+03
   3.6000000E-01   5.7506230E-01   1.9597451E+01   4.6089379E+02   2.0036689E+03
   3.6250000E-01   5.7506230E-01   1.9597451E+01   4.6089379E+02   2.0036689E+03
   3.6500000E-01   5.7506230E-01   1.9597451E+01   4.6089379E+02   2.0036689E+03
   3.6750000E-01   5.7506230E-01   1.9597451E+01   4.6089379E+02   2.0036689E+03
   3.7000000E-01   5.7506230E-01   1.9597451E+01   4.6089379E+02   2.0036689E+03
   3.7250000E-01   5.7506230E-01   1.9597451E+01   4.6089379E+02   2.0036689E+03
   3.7500000E-01   5.7506230E-01   1.9597451E+01   4.6089379E+02   2.0036689E+03
   3.7750000E-01   5.7506230E-01   1.9597451E+01   4.6089379E+02   2.0036689E+03
   3.8000000E-01   5.7506230E-01   1.9597451E+01   4.6089379E+02   2.0036689E+03
   3.8250000E-01   5.7506230E-01   1.9597451E+01   4.6089379E+02   2.0036689E+03
   3.8500000E-01   5.7506230E-01   1.9597451E+01   4.6089379E+02   2.0036689E+03
   3.8750000E-01   5.7506230E-01   1.9597451E+01   4.6089379E+02   2.0036689E+03
   3.9000000E-01   5.7506230E-01   1.9597451E+01   4.6089379E+02   2.0036689E+03
   3.9250000E-01   5.7506230E-01   1.9597451E+01   4.6089379E+02   2.0036689E+03
   3.9500000E-01   5.7506230E-01   1.9597451E+01   4.6089379E+02   2.0036689E+03
   3.9750000E-01   5.7506230E-01   1.9597451E+01   4.6089379E+02   2.0036689E+03
   4.0000000E-01   5.7506230E-01   1.9597451E+01   4.6089379E+02   2.0036689E+03
   4.0250000E-01   5.7506230E-01   1.9597451E+01   4.6089379E+02   2.0036689E+03
   4.0500000E-01   5.7506230E-01   1.9597451E+01   4.6089379E+02   2.0036689E+03
   4.0750000E-01   5.7506230E-01   1.9597451E+01   4.6089379E+02   2.0036689E+03
   4.1000000E-01   5.7506230E-01   1.9597451E+01   4.6089379E+02   2.0036689E+03
   4.1250000E-01   5.7506230E-01   1.9597451E+01   4.6089379E+02   2.0036689E+03
   4.1500000E-01   5.7506230E-01   1.9597451E+01   4.6089379E+02   2.0036689E+03
   4.1750000E-01   5.7506230E-01   1.9597451E+01   4.6089379E+02   2.0036689E+03
   4.2000000E-01   5.7506230E-01   1.9597451E+01   4.6089379E+02   2.0036689E+03
   4.2250000E-01   5.7506230E-01   1.9597451E+01   4.6089379E+02   2.0036689E+03
   4.2500000E-01   5.7506230E-01   1.9597451E+01   4.6089379E+02   2.0036689E+03
   4.2750000E-01   5.7506230E-01   1.9597451E+01   4.6089379E+02   2.0036689E+03
   4.3000000E-01   5.7506230E-01   1.9597451E+01   4.6089379E+02   2.0036689E+03
   4.3250000E-01   5.7506230E-01   1.9597451E+01   4.6089379E+02   2.0036689E+03
   4.3500000E-01   5.7506230E-01   1.9597451E+01   4.6089379E+02   2.0036689E+03
   4.3750000E-01   5.7506230E-01   1.9597451E+01   4.6089379E+02   2.0036689E+03
   4.4000000E-01   5.7506230E-01   1.9597451E+01   4.6089379E+02   2.0036689E+03
   4.4250000E-01   5.7506230E-01   1.9597451E+01   4.6089379E+02   2.0036689E+03
   4.4500000E-01   5.7506230E-01   1.9597451E+01   4.6089379E+02   2.0036689E+03
   4.4750000E-01   5.7506230E-01   1.9597451E+01   4.6089379E+02   2.0036689E+03
   4.5000000E-01   5.7506230E-01   1.9597451E+01   4.6089379E+02   2.0036689E+03
   4.5250000E-01   5.7506230E-01   1.9597451E+01   4.6089379E+02   2.0036689E+03
   4.5500000E-01   5.7506230E-01   1.9597451E+01   4.6089379E+02   2.0036689E+03
   4.5750000E-01   5.7506230E-01   1.9597451E+01   4.6089379E+02   2.0036689E+03
   4.6000000E-01   5.7506230E-01   1.9597451E+01   4.6089379E+02   2.0036689E+03
   4.6250000E-01   5.7506230E-01   1.9597451E+01   4.6089379E+02   2.0036689E+03
   4.6500000E-01   5.7506230E-01   1.9597451E+01   4.6089379E+02   2.0036689E+03
   4.6750000E-01   5.7506230E-01   1.9597451E+01   4.6089379E+02   2.0036689E+03
   4.7000000E-01   5.7506230E-01   1.9597451E+01   4.6089379E+02   2.0036689E+03
   4.7250000E-01   5.7506230E-01   1.9597451E+01   4.6089379E+02   2.0036689E+03
   4.7500000E-01   5.7506230E-01   1.9597451E+01   4.6089379E+02   2.0036689E+03
   4.7750000E-01   5.7506230E-01   1.9597451E+01   4.6089379E+02   2.0036689E+03
   4.8000000E-01   5.7506230E-01   1.9597451E+01   4.6089379E+02   2.0036689E+03
   4.8250000E-01   5.7506230E-01   1.9597451E+01   4.6089379E+02   2.0036689E+03
   4.8500000E-01   5.7506230E-01   1.9597451E+01   4.6089379E+02   2.0036689E+03
   4.8750000E-01   5.7506230E-01   1.9597451E+01   4.6089379E+02   2.0036689E+03
   4.9000000E-01   5.7506230E-01   1.9597451E+01   4.6089379E+02   2.0036689E+03
   4.9250000E-01   5.7506230E-01   1.9597451E+01   4.6089379E+02   2.0036689E+03
   4.9500000E-01   5.7506230E-01   1.9597451E+01   4.6089379E+02   2.0036689E+03
   4.9750000E-01   5.7506230E-01   1.9597451E+01   4.6089379E+02   2.0036689E+03
   5.0000000E-01   5.7506230E-01   1.9597451E+01   4.6089379E+02   2.0036689E+03
   5.0250000E-01   5.7506230E-01   1.9597451E+01   4.6089379E+02   2.0036689E+03
   5.0500000E-01   5.7506230E-01   1.9597451E+01   4.6089379E+02   2.0036689E+03
   5.0750000E-01   5.7506230E-01   1.9597451E+01   4.6089379E+02   2.0036689E+03
   5.1000000E-01   5.7506230E-01   1.9597451E+01   4.6089379E+02   2.0036689E+03
   5.1250000E-01   5.7506230E-01   1.9597451E+01   4.6089379E+02   2.0036689E+03
   5.1500000E-01   5.7506230E-01   1.9597451E+01   4.6089379E+02   2.0036689E+03
   5.1750000E-01   5.7506230E-01   1.9597451E+01   4.6089379E+02   2.0036689E+03
   5.2000000E-01   5.7506230E-01   1.9597451E+01   4.6089379E+02   2.0036689E+03
   5.2250000E-01   5.7506230E-01   1.9597451E+01   4.6089379E+02   2.0036689E+03
   5.2500000E-01   5.7506230E-01   1.9597451E+01   4.6089379E+02   2.0036689E+03
   5.2750000E-01   5.7506230E-01   1.9597451E+01   4.6089379E+02   2.0036689E+03
   5.3000000E-01   5.7506230E-01   1.9597451E+01   4.6089379E+02   2.0036689E+03
   5.3250000E-01   5.7506230E-01   1.9597451E+01   4.6089379E+02   2.0036689E+03
   5.3500000E-01   5.7506230E-01   1.9597451E+01   4.6089379E+02   2.0036689E+03
   5.3750000E-01   5.7506230E-01   1.9597451E+01   4.6089379E+02   2.0036689E+03
   5.4000000E-01   5.7506230E-01   1.9597451E+01   4.6089379E+02   2.0036689E+03
   5.4250000E-01   5.7506230E-01   1.9597451E+01   4.6089379E+02   2.0036689E+03
   5.4500000E-01   5.7506230E-01   1.9597451E+01   4.6089379E+02   2.0036689E+03
   5.4750000E-01   5.7506230E-01   1.9597451E+01   4.6089379E+02   2.0036689E+03
   5.5000000E-01   5.7506230E-01   1.9597451E+01   4.6089379E+02   2.0036689E+03
   5.5250000E-01   5.7506230E-01   1.9597451E+01   4.6089379E+02   2.0036689E+03
   5.5500000E-01   5.7506230E-01   1.9597451E+01   4.6089379E+02   2.0036689E+03
   5.5750000E-01   5.7506230E-01   1.9597451E+01   4.6089379E+02   2.0036689E+03
   5.6000000E-01   5.7506230E-01   1.9597451E+01   4.6089379E+02   2.0036689E+03
   5.6250000E-01   5.7506230E-01   1.9597451E+01   4.6089379E+02   2.0036689E+03
   5.6500000E-01   5.7506230E-01   1.9597451E+01   4.6089379E+02   2.0036689E+03
   5.6750000E-01   5.7506230E-01   1.9597451E+01   4.6089379E+02   2.0036689E+03
   5.7000000E-01   5.7506230E-01   1.9597451E+01   4.6089379E+02   2.0036689E+03
   5.7250000E-01   5.7506230E-01   1.9597451E+01   4.6089379E+02   2.0036689E+03
   5.7500000E-01   5.7506230E-01   1.9597451E+01   4.6089379E+02   2.0036689E+03
   5.7750000E-01   5.7506230E-01   1.9597451E+01   4.6089379E+02   2.0036689E+03
   5.8000000E-01   5.7506230E-01   1.9597451E+01   4.6089379E+02   2.0036689E+03
   5.8250000E-01   5.7506230E-01   1.9597451E+01   4.6089379E+02   2.0036689E+03
   5.8500000E-01   5.7506230E-01   1.9597451E+01   4.6089379E+02   2.0036689E+03
   5.8750000E-01   5.7506230E-01   1.9597451E+01   4.6089379E+02   2.0036689E+03
   5.9000000E-01   5.7506230E-01   1.9597451E+01   4.6089379E+02   2.0036689E+03
   5.9250000E-01   5.7506230E-01   1.9597451E+01   4.6089379E+02   2.0036689E+03
   5.9500000E-01   5.7506230E-01   1.9597451E+01   4.6089379E+02   2.0036689E+03
   5.9750000E-01   5.7506230E-01   1.9597451E+01   4.6089379E+02   2.0036689E+03
   6.0000000E-01   5.7506230E-01   1.9597451E+01   4.6089379E+02   2.0036689E+03
   6.0250000E-01   5.7506230E-01   1.9597451E+01   4.6089379E+02   2.0036689E+03
   6.0500000E-01   5.7506230E-01   1.9597451E+01   4.6089379E+02   2.0036689E+03
   6.0750000E-01   5.7506230E-01   1.9597451E+01   4.6089379E+02   2.0036689E+03
   6.1000000E-01   5.7506230E-01   1.9597451E+01   4.6089379E+02   2.0036689E+03
   6.1250000E-01   5.7506230E-01   1.9597451E+01   4.6089379E+02   2.0036689E+03
